#    s        x        y     Ue/Vinf    Dstar     Theta      Cf       H
   0.00000  1.00000  0.00126  0.99982  0.049690  0.009746 -0.000004     5.099
   0.00632  0.99381  0.00254  1.00066  0.048524  0.009688 -0.000004     5.009
   0.01731  0.98304  0.00473  1.00209  0.046455  0.009593 -0.000004     4.843
   0.03011  0.97049  0.00724  1.00371  0.044031  0.009490 -0.000004     4.640
   0.04441  0.95646  0.01001  1.00544  0.041348  0.009383 -0.000003     4.407
   0.05976  0.94138  0.01291  1.00718  0.038521  0.009282 -0.000002     4.150
   0.07573  0.92569  0.01588  1.00873  0.035654  0.009197  0.000000     3.877
   0.09203  0.90967  0.01884  1.01030  0.032823  0.009117  0.000007     3.600
   0.10849  0.89346  0.02176  1.00934  0.030126  0.009163  0.000037     3.288
   0.12504  0.87717  0.02463  1.01040  0.027522  0.009112  0.000088     3.021
   0.14163  0.86082  0.02745  1.01555  0.025033  0.008886  0.000153     2.817
   0.15824  0.84444  0.03020  1.02254  0.022733  0.008602  0.000227     2.643
   0.17486  0.82804  0.03289  1.03123  0.020627  0.008274  0.000312     2.493
   0.19149  0.81162  0.03552  1.04149  0.018718  0.007917  0.000411     2.364
   0.20812  0.79519  0.03809  1.05307  0.017011  0.007546  0.000522     2.254
   0.22474  0.77875  0.04059  1.06581  0.015486  0.007171  0.000644     2.160
   0.24137  0.76230  0.04302  1.07944  0.014138  0.006801  0.000774     2.079
   0.25800  0.74585  0.04539  1.09376  0.012948  0.006443  0.000911     2.009
   0.27462  0.72938  0.04769  1.10859  0.011897  0.006101  0.001053     1.950
   0.29124  0.71292  0.04993  1.12374  0.010973  0.005779  0.001197     1.899
   0.30785  0.69645  0.05210  1.13910  0.010156  0.005475  0.001343     1.855
   0.32446  0.67998  0.05420  1.15449  0.009437  0.005193  0.001489     1.817
   0.34105  0.66350  0.05624  1.17001  0.008791  0.004927  0.001637     1.784
   0.35764  0.64703  0.05820  1.18540  0.008220  0.004681  0.001782     1.756
   0.37422  0.63056  0.06009  1.20085  0.007703  0.004450  0.001928     1.731
   0.39079  0.61410  0.06191  1.21623  0.007237  0.004234  0.002074     1.709
   0.40734  0.59764  0.06366  1.23158  0.006813  0.004031  0.002219     1.690
   0.42388  0.58118  0.06533  1.24689  0.006425  0.003840  0.002364     1.673
   0.44040  0.56474  0.06692  1.26229  0.006067  0.003660  0.002511     1.658
   0.45690  0.54830  0.06843  1.27770  0.005736  0.003489  0.002659     1.644
   0.47339  0.53188  0.06985  1.29325  0.005426  0.003326  0.002808     1.632
   0.48985  0.51547  0.07120  1.30886  0.005138  0.003171  0.002960     1.620
   0.50630  0.49907  0.07245  1.32477  0.004865  0.003022  0.003117     1.610
   0.52271  0.48270  0.07362  1.34078  0.004609  0.002880  0.003276     1.600
   0.53910  0.46635  0.07469  1.35724  0.004363  0.002742  0.003443     1.591
   0.55545  0.45002  0.07567  1.37393  0.004130  0.002610  0.003615     1.583
   0.57177  0.43373  0.07654  1.39114  0.003906  0.002481  0.003798     1.574
   0.58802  0.41749  0.07732  1.40903  0.003688  0.002355  0.003995     1.566
   0.60420  0.40134  0.07798  1.42784  0.003473  0.002231  0.004213     1.557
   0.62025  0.38529  0.07852  1.44727  0.003266  0.002110  0.004446     1.548
   0.63621  0.36934  0.07891  1.46609  0.003081  0.002000  0.004668     1.541
   0.65210  0.35345  0.07914  1.48491  0.002908  0.001895  0.004890     1.535
   0.66793  0.33762  0.07922  1.50374  0.002747  0.001795  0.005113     1.530
   0.68371  0.32184  0.07915  1.52288  0.002593  0.001700  0.005341     1.526
   0.69943  0.30612  0.07891  1.54218  0.002449  0.001608  0.005571     1.523
   0.71510  0.29046  0.07850  1.56192  0.002310  0.001520  0.005810     1.520
   0.73070  0.27487  0.07791  1.58219  0.002177  0.001435  0.006057     1.518
   0.74623  0.25935  0.07715  1.60287  0.002051  0.001352  0.006311     1.516
   0.76169  0.24392  0.07620  1.62440  0.001927  0.001272  0.006580     1.515
   0.77706  0.22859  0.07506  1.64662  0.001809  0.001194  0.006861     1.515
   0.79234  0.21338  0.07373  1.66977  0.001694  0.001118  0.007157     1.515
   0.80750  0.19829  0.07219  1.69410  0.001581  0.001044  0.007477     1.515
   0.82254  0.18335  0.07044  1.71970  0.001472  0.000971  0.007821     1.516
   0.83743  0.16859  0.06848  1.74698  0.001365  0.000900  0.008201     1.517
   0.85213  0.15405  0.06629  1.77595  0.001260  0.000830  0.008617     1.518
   0.86661  0.13978  0.06389  1.80726  0.001156  0.000761  0.009092     1.519
   0.88079  0.12584  0.06127  1.84113  0.001055  0.000694  0.009640     1.520
   0.89460  0.11233  0.05844  1.87791  0.000955  0.000628  0.010278     1.519
   0.90791  0.09937  0.05542  1.91813  0.000856  0.000564  0.011046     1.518
   0.92057  0.08711  0.05226  1.96192  0.000761  0.000503  0.011973     1.514
   0.93242  0.07571  0.04901  2.00937  0.000670  0.000445  0.013103     1.507
   0.94332  0.06532  0.04573  2.06057  0.000584  0.000390  0.014485     1.497
   0.95315  0.05602  0.04251  2.11459  0.000505  0.000340  0.016137     1.485
   0.96191  0.04785  0.03938  2.17140  0.000433  0.000295  0.018092     1.471
   0.96962  0.04073  0.03640  2.23012  0.000370  0.000254  0.020300     1.457
   0.97639  0.03458  0.03357  2.28978  0.000316  0.000218  0.022604     1.449
   0.98235  0.02925  0.03090  2.34962  0.000273  0.000187  0.024504     1.456
   0.98761  0.02465  0.02837  2.40785  0.000244  0.000161  0.024471     1.511
   0.99228  0.02064  0.02596  2.46441  0.000240  0.000140  0.018933     1.715
   0.99646  0.01715  0.02365  2.54396  0.000295  0.000119  0.006407     2.472
   1.00023  0.01410  0.02143  2.78573  0.000438  0.000066 -0.001632     6.614
   1.00366  0.01144  0.01929  2.81769  0.000399  0.000060 -0.001886     6.606
   1.00679  0.00910  0.01719  2.84180  0.000316  0.000057 -0.002138     5.565
   1.00968  0.00708  0.01514  2.87629  0.000233  0.000053 -0.001634     4.422
   1.01235  0.00532  0.01312  2.92512  0.000169  0.000048  0.002347     3.551
   1.01485  0.00383  0.01112  2.98516  0.000129  0.000042  0.009235     3.059
   1.01719  0.00259  0.00913  3.03768  0.000104  0.000037  0.017009     2.794
   1.01940  0.00160  0.00716  3.06911  0.000086  0.000033  0.024990     2.628
   1.02149  0.00085  0.00521  3.07020  0.000074  0.000029  0.033225     2.511
   1.02348  0.00034  0.00329  3.03338  0.000065  0.000027  0.040546     2.425
   1.02538  0.00006  0.00140  2.95576  0.000059  0.000025  0.045597     2.371
   1.02721  0.00001 -0.00042  2.84487  0.000055  0.000024  0.048796     2.332
   1.02906  0.00017 -0.00227  2.69727  0.000052  0.000023  0.050712     2.291
   1.03098  0.00057 -0.00415  2.50692  0.000050  0.000022  0.049994     2.259
   1.03298  0.00123 -0.00604  2.28162  0.000049  0.000022  0.047293     2.225
   1.03507  0.00216 -0.00791  2.03362  0.000051  0.000023  0.041300     2.212
   1.03727  0.00337 -0.00974  1.78286  0.000052  0.000024  0.035408     2.191
   1.03959  0.00484 -0.01154  1.53818  0.000056  0.000026  0.028469     2.190
   1.04205  0.00657 -0.01328  1.31244  0.000060  0.000028  0.022791     2.181
   1.04469  0.00858 -0.01499  1.10470  0.000065  0.000030  0.017512     2.183
   1.04752  0.01087 -0.01666  0.91862  0.000071  0.000032  0.013375     2.185
   1.05059  0.01347 -0.01829  0.75105  0.000077  0.000035  0.009950     2.189
   1.05394  0.01640 -0.01991  0.59983  0.000085  0.000039  0.007269     2.191
   1.05762  0.01971 -0.02152  0.46396  0.000093  0.000042  0.005046     2.203
   1.06169  0.02346 -0.02312  0.34015  0.000101  0.000046  0.003423     2.198
   1.06625  0.02772 -0.02473  0.22759  0.000112  0.000050  0.002017     2.224
   1.07138  0.03259 -0.02635  0.12357  0.000119  0.000054  0.001032     2.214
   1.07721  0.03819 -0.02799  0.02830  0.000140  0.000063  0.000193     2.230
   1.08388  0.04464 -0.02964 -0.06039  0.000140  0.000063  0.000435     2.230
   1.09152  0.05210 -0.03130 -0.14196  0.000164  0.000072  0.000835     2.264
   1.10027  0.06070 -0.03295 -0.21731  0.000174  0.000078  0.001240     2.230
   1.11023  0.07053 -0.03455 -0.28625  0.000196  0.000086  0.001384     2.281
   1.12140  0.08159 -0.03607 -0.34792  0.000211  0.000094  0.001592     2.260
   1.13370  0.09381 -0.03747 -0.40321  0.000233  0.000102  0.001623     2.288
   1.14696  0.10702 -0.03870 -0.45125  0.000253  0.000111  0.001681     2.288
   1.16100  0.12102 -0.03975 -0.49312  0.000275  0.000119  0.001670     2.300
   1.17563  0.13563 -0.04061 -0.52936  0.000295  0.000128  0.001658     2.306
   1.19072  0.15070 -0.04129 -0.56077  0.000317  0.000137  0.001625     2.314
   1.20615  0.16612 -0.04180 -0.58808  0.000337  0.000145  0.001591     2.321
   1.22184  0.18181 -0.04215 -0.61198  0.000358  0.000154  0.001550     2.328
   1.23775  0.19771 -0.04236 -0.63286  0.000378  0.000162  0.001505     2.335
   1.25383  0.21379 -0.04244 -0.65144  0.000398  0.000170  0.001467     2.340
   1.27005  0.23002 -0.04240 -0.66809  0.000417  0.000178  0.001429     2.344
   1.28640  0.24636 -0.04227 -0.68293  0.000437  0.000186  0.001388     2.350
   1.30286  0.26282 -0.04204 -0.69640  0.000455  0.000193  0.001353     2.354
   1.31941  0.27936 -0.04174 -0.70859  0.000474  0.000201  0.001317     2.359
   1.33604  0.29599 -0.04137 -0.71990  0.000491  0.000208  0.001289     2.360
   1.35275  0.31270 -0.04093 -0.73023  0.000508  0.000215  0.001258     2.364
   1.36952  0.32946 -0.04045 -0.74002  0.000524  0.000222  0.001236     2.364
   1.38635  0.34629 -0.03992 -0.74908  0.000540  0.000228  0.001211     2.367
   1.40323  0.36315 -0.03936 -0.75777  0.000555  0.000234  0.001194     2.366
   1.42013  0.38005 -0.03876 -0.76627  0.000567  0.000240  0.001184     2.363
   1.43704  0.39694 -0.03814 -0.77484  0.000578  0.000245  0.001184     2.356
   1.45389  0.41378 -0.03750 -0.78338  0.000587  0.000250  0.001186     2.349
   1.47071  0.43058 -0.03681 -0.79087  0.000602  0.000255  0.001160     2.356
   1.48754  0.44740 -0.03606 -0.79774  0.000617  0.000261  0.001134     2.364
   1.50439  0.46423 -0.03528 -0.80397  0.000632  0.000267  0.001106     2.372
   1.52126  0.48108 -0.03446 -0.81010  0.000645  0.000272  0.001091     2.373
   1.53816  0.49795 -0.03360 -0.81565  0.000660  0.000277  0.001067     2.379
   1.55508  0.51485 -0.03271 -0.82102  0.000673  0.000283  0.001051     2.381
   1.57202  0.53177 -0.03179 -0.82624  0.000686  0.000288  0.001038     2.381
   1.58899  0.54871 -0.03085 -0.83102  0.000700  0.000293  0.001018     2.386
   1.60597  0.56567 -0.02988 -0.83599  0.000710  0.000298  0.001013     2.383
   1.62298  0.58264 -0.02889 -0.84052  0.000723  0.000303  0.000998     2.385
   1.64000  0.59963 -0.02788 -0.84518  0.000733  0.000308  0.000992     2.383
   1.65703  0.61664 -0.02685 -0.84952  0.000744  0.000312  0.000980     2.384
   1.67408  0.63366 -0.02581 -0.85401  0.000754  0.000317  0.000977     2.381
   1.69114  0.65068 -0.02475 -0.85812  0.000765  0.000321  0.000964     2.383
   1.70821  0.66772 -0.02369 -0.86256  0.000773  0.000325  0.000965     2.378
   1.72529  0.68477 -0.02261 -0.86685  0.000781  0.000329  0.000962     2.375
   1.74238  0.70182 -0.02152 -0.87101  0.000790  0.000333  0.000956     2.374
   1.75948  0.71888 -0.02043 -0.87537  0.000797  0.000336  0.000958     2.369
   1.77658  0.73594 -0.01932 -0.87953  0.000805  0.000340  0.000954     2.368
   1.79368  0.75301 -0.01821 -0.88401  0.000809  0.000343  0.000959     2.361
   1.81078  0.77008 -0.01709 -0.88825  0.000817  0.000346  0.000958     2.359
   1.82789  0.78715 -0.01597 -0.89279  0.000821  0.000349  0.000964     2.353
   1.84499  0.80422 -0.01484 -0.89749  0.000824  0.000351  0.000973     2.345
   1.86210  0.82128 -0.01370 -0.90197  0.000829  0.000354  0.000973     2.343
   1.87919  0.83834 -0.01256 -0.90682  0.000831  0.000356  0.000984     2.335
   1.89627  0.85538 -0.01141 -0.91195  0.000831  0.000357  0.000998     2.325
   1.91334  0.87240 -0.01026 -0.91698  0.000833  0.000359  0.001007     2.320
   1.93036  0.88939 -0.00910 -0.92281  0.000829  0.000360  0.001033     2.305
   1.94729  0.90628 -0.00793 -0.92829  0.000829  0.000361  0.001044     2.299
   1.96405  0.92300 -0.00677 -0.93468  0.000822  0.000360  0.001076     2.282
   1.98046  0.93937 -0.00562 -0.94150  0.000814  0.000359  0.001112     2.265
   1.99621  0.95508 -0.00451 -0.94876  0.000803  0.000358  0.001156     2.246
   2.01084  0.96967 -0.00347 -0.95683  0.000787  0.000355  0.001218     2.220
   2.02384  0.98263 -0.00253 -0.96616  0.000762  0.000349  0.001312     2.183
   2.03492  0.99369 -0.00172 -0.97437  0.000745  0.000345  0.001382     2.160
   2.04125  1.00000 -0.00126 -0.99982  0.000626  0.000316  0.002060     1.983
   2.04125  1.00010 -0.00001  0.99982  0.052807  0.010061  0.000000     5.249
   2.04757  1.00641 -0.00039  0.99827  0.052336  0.010174  0.000000     5.144
   2.05499  1.01382 -0.00072  0.99543  0.051595  0.010380  0.000000     4.971
   2.06368  1.02251 -0.00102  0.99191  0.050625  0.010636  0.000000     4.760
   2.07387  1.03270 -0.00130  0.98746  0.049385  0.010957  0.000000     4.507
   2.08583  1.04465 -0.00153  0.98172  0.047824  0.011370  0.000000     4.206
   2.09984  1.05866 -0.00169  0.97404  0.045888  0.011921  0.000000     3.849
   2.11627  1.07509 -0.00176  0.96311  0.043544  0.012704  0.000000     3.427
   2.13554  1.09436 -0.00170  0.94804  0.040755  0.013782  0.000000     2.957
   2.15813  1.11695 -0.00146  0.93912  0.037484  0.014418  0.000000     2.600
   2.18462  1.14343 -0.00098  0.93325  0.033981  0.014825  0.000000     2.292
   2.21567  1.17448 -0.00017  0.93092  0.030455  0.014979  0.000000     2.033
   2.25209  1.21087  0.00107  0.93208  0.027128  0.014906  0.000000     1.820
   2.29479  1.25353  0.00287  0.93604  0.024178  0.014673  0.000000     1.648
   2.34485  1.30353  0.00538  0.94172  0.021693  0.014359  0.000000     1.511
   2.40355  1.36213  0.00882  0.94809  0.019671  0.014029  0.000000     1.402
   2.47237  1.43080  0.01341  0.95441  0.018057  0.013721  0.000000     1.316
   2.55307  1.51127  0.01947  0.96028  0.016777  0.013448  0.000000     1.248
   2.64769  1.60556  0.02735  0.96556  0.015765  0.013213  0.000000     1.193
   2.75864  1.71605  0.03748  0.97024  0.014965  0.013013  0.000000     1.150
   2.88872  1.84549  0.05039  0.97433  0.014338  0.012844  0.000000     1.116
   3.04125  1.99714  0.06668  0.97917  0.013787  0.012649  0.000000     1.090
